# Los datos iniciales son: theta = .15rad l = 12.00m m = 1.00kg.
# t         pos ang         vel ang
0.13906E-01  0.15000E+00  -.00000E+00
0.27811E-01  0.14999E+00  -.17034E-02
0.41717E-01  0.14995E+00  -.34065E-02
0.55622E-01  0.14989E+00  -.51091E-02
0.69528E-01  0.14981E+00  -.68108E-02
0.83433E-01  0.14970E+00  -.85115E-02
0.97339E-01  0.14957E+00  -.10211E-01
0.11124E+00  0.14942E+00  -.11909E-01
0.12515E+00  0.14924E+00  -.13604E-01
0.13906E+00  0.14904E+00  -.15298E-01
0.15296E+00  0.14882E+00  -.16989E-01
0.16687E+00  0.14857E+00  -.18678E-01
0.18077E+00  0.14830E+00  -.20364E-01
0.19468E+00  0.14800E+00  -.22046E-01
0.20858E+00  0.14768E+00  -.23725E-01
0.22249E+00  0.14734E+00  -.25400E-01
0.23639E+00  0.14698E+00  -.27072E-01
0.25030E+00  0.14659E+00  -.28739E-01
0.26421E+00  0.14618E+00  -.30401E-01
0.27811E+00  0.14574E+00  -.32058E-01
0.29202E+00  0.14529E+00  -.33711E-01
0.30592E+00  0.14481E+00  -.35358E-01
0.31983E+00  0.14430E+00  -.37000E-01
0.33373E+00  0.14378E+00  -.38636E-01
0.34764E+00  0.14323E+00  -.40265E-01
0.36154E+00  0.14266E+00  -.41889E-01
0.37545E+00  0.14206E+00  -.43505E-01
0.38935E+00  0.14145E+00  -.45115E-01
0.40326E+00  0.14081E+00  -.46718E-01
0.41717E+00  0.14015E+00  -.48313E-01
0.43107E+00  0.13947E+00  -.49901E-01
0.44498E+00  0.13876E+00  -.51481E-01
0.45888E+00  0.13803E+00  -.53052E-01
0.47279E+00  0.13729E+00  -.54616E-01
0.48669E+00  0.13652E+00  -.56170E-01
0.50060E+00  0.13572E+00  -.57716E-01
0.51450E+00  0.13491E+00  -.59253E-01
0.52841E+00  0.13408E+00  -.60780E-01
0.54232E+00  0.13322E+00  -.62298E-01
0.55622E+00  0.13234E+00  -.63806E-01
0.57013E+00  0.13145E+00  -.65304E-01
0.58403E+00  0.13053E+00  -.66791E-01
0.59794E+00  0.12959E+00  -.68268E-01
0.61184E+00  0.12863E+00  -.69735E-01
0.62575E+00  0.12765E+00  -.71190E-01
0.63965E+00  0.12665E+00  -.72634E-01
0.65356E+00  0.12563E+00  -.74066E-01
0.66747E+00  0.12459E+00  -.75487E-01
0.68137E+00  0.12353E+00  -.76896E-01
0.69528E+00  0.12245E+00  -.78293E-01
0.70918E+00  0.12135E+00  -.79677E-01
0.72309E+00  0.12024E+00  -.81049E-01
0.73699E+00  0.11910E+00  -.82408E-01
0.75090E+00  0.11794E+00  -.83754E-01
0.76480E+00  0.11677E+00  -.85086E-01
0.77871E+00  0.11558E+00  -.86406E-01
0.79261E+00  0.11437E+00  -.87711E-01
0.80652E+00  0.11314E+00  -.89003E-01
0.82043E+00  0.11189E+00  -.90281E-01
0.83433E+00  0.11063E+00  -.91544E-01
0.84824E+00  0.10935E+00  -.92793E-01
0.86214E+00  0.10805E+00  -.94028E-01
0.87605E+00  0.10673E+00  -.95247E-01
0.88995E+00  0.10540E+00  -.96452E-01
0.90386E+00  0.10405E+00  -.97641E-01
0.91776E+00  0.10268E+00  -.98815E-01
0.93167E+00  0.10130E+00  -.99973E-01
0.94558E+00  0.99902E-01  -.10112E+00
0.95948E+00  0.98488E-01  -.10224E+00
0.97339E+00  0.97058E-01  -.10335E+00
0.98729E+00  0.95614E-01  -.10445E+00
0.10012E+01  0.94154E-01  -.10552E+00
0.10151E+01  0.92679E-01  -.10658E+00
0.10290E+01  0.91190E-01  -.10763E+00
0.10429E+01  0.89686E-01  -.10866E+00
0.10568E+01  0.88168E-01  -.10967E+00
0.10707E+01  0.86636E-01  -.11066E+00
0.10846E+01  0.85090E-01  -.11163E+00
0.10985E+01  0.83531E-01  -.11259E+00
0.11124E+01  0.81959E-01  -.11353E+00
0.11263E+01  0.80374E-01  -.11445E+00
0.11403E+01  0.78776E-01  -.11536E+00
0.11542E+01  0.77166E-01  -.11624E+00
0.11681E+01  0.75543E-01  -.11711E+00
0.11820E+01  0.73909E-01  -.11796E+00
0.11959E+01  0.72263E-01  -.11879E+00
0.12098E+01  0.70606E-01  -.11960E+00
0.12237E+01  0.68937E-01  -.12039E+00
0.12376E+01  0.67257E-01  -.12116E+00
0.12515E+01  0.65567E-01  -.12192E+00
0.12654E+01  0.63867E-01  -.12265E+00
0.12793E+01  0.62156E-01  -.12337E+00
0.12932E+01  0.60436E-01  -.12406E+00
0.13071E+01  0.58706E-01  -.12474E+00
0.13210E+01  0.56967E-01  -.12540E+00
0.13349E+01  0.55219E-01  -.12604E+00
0.13488E+01  0.53462E-01  -.12665E+00
0.13627E+01  0.51696E-01  -.12725E+00
0.13766E+01  0.49923E-01  -.12783E+00
0.13906E+01  0.48142E-01  -.12838E+00
0.14045E+01  0.46353E-01  -.12892E+00
0.14184E+01  0.44556E-01  -.12944E+00
0.14323E+01  0.42753E-01  -.12993E+00
0.14462E+01  0.40943E-01  -.13041E+00
0.14601E+01  0.39126E-01  -.13086E+00
0.14740E+01  0.37303E-01  -.13130E+00
0.14879E+01  0.35475E-01  -.13171E+00
0.15018E+01  0.33641E-01  -.13210E+00
0.15157E+01  0.31801E-01  -.13247E+00
0.15296E+01  0.29956E-01  -.13282E+00
0.15435E+01  0.28107E-01  -.13315E+00
0.15574E+01  0.26253E-01  -.13346E+00
0.15713E+01  0.24396E-01  -.13375E+00
0.15852E+01  0.22534E-01  -.13402E+00
0.15991E+01  0.20669E-01  -.13426E+00
0.16130E+01  0.18800E-01  -.13449E+00
0.16269E+01  0.16928E-01  -.13469E+00
0.16409E+01  0.15054E-01  -.13487E+00
0.16548E+01  0.13178E-01  -.13503E+00
0.16687E+01  0.11299E-01  -.13517E+00
0.16826E+01  0.94186E-02  -.13529E+00
0.16965E+01  0.75367E-02  -.13538E+00
0.17104E+01  0.56535E-02  -.13546E+00
0.17243E+01  0.37695E-02  -.13551E+00
0.17382E+01  0.18849E-02  -.13554E+00
0.17521E+01  0.11325E-07  -.13555E+00
0.17660E+01  -.18849E-02  -.13554E+00
0.17799E+01  -.37695E-02  -.13551E+00
0.17938E+01  -.56535E-02  -.13546E+00
0.18077E+01  -.75366E-02  -.13538E+00
0.18216E+01  -.94186E-02  -.13529E+00
0.18355E+01  -.11299E-01  -.13517E+00
0.18494E+01  -.13178E-01  -.13503E+00
0.18633E+01  -.15054E-01  -.13487E+00
0.18772E+01  -.16928E-01  -.13469E+00
0.18912E+01  -.18800E-01  -.13449E+00
0.19051E+01  -.20669E-01  -.13426E+00
0.19190E+01  -.22534E-01  -.13402E+00
0.19329E+01  -.24396E-01  -.13375E+00
0.19468E+01  -.26253E-01  -.13346E+00
0.19607E+01  -.28107E-01  -.13315E+00
0.19746E+01  -.29956E-01  -.13282E+00
0.19885E+01  -.31801E-01  -.13247E+00
0.20024E+01  -.33641E-01  -.13210E+00
0.20163E+01  -.35475E-01  -.13171E+00
0.20302E+01  -.37303E-01  -.13130E+00
0.20441E+01  -.39126E-01  -.13086E+00
0.20580E+01  -.40943E-01  -.13041E+00
0.20719E+01  -.42753E-01  -.12993E+00
0.20858E+01  -.44556E-01  -.12944E+00
0.20997E+01  -.46353E-01  -.12892E+00
0.21136E+01  -.48142E-01  -.12838E+00
0.21275E+01  -.49923E-01  -.12783E+00
0.21415E+01  -.51696E-01  -.12725E+00
0.21554E+01  -.53462E-01  -.12665E+00
0.21693E+01  -.55219E-01  -.12604E+00
0.21832E+01  -.56967E-01  -.12540E+00
0.21971E+01  -.58706E-01  -.12474E+00
0.22110E+01  -.60436E-01  -.12406E+00
0.22249E+01  -.62156E-01  -.12337E+00
0.22388E+01  -.63867E-01  -.12265E+00
0.22527E+01  -.65567E-01  -.12192E+00
0.22666E+01  -.67257E-01  -.12116E+00
0.22805E+01  -.68937E-01  -.12039E+00
0.22944E+01  -.70606E-01  -.11960E+00
0.23083E+01  -.72263E-01  -.11879E+00
0.23222E+01  -.73909E-01  -.11796E+00
0.23361E+01  -.75543E-01  -.11711E+00
0.23500E+01  -.77166E-01  -.11624E+00
0.23639E+01  -.78776E-01  -.11536E+00
0.23778E+01  -.80374E-01  -.11445E+00
0.23918E+01  -.81959E-01  -.11353E+00
0.24057E+01  -.83531E-01  -.11259E+00
0.24196E+01  -.85090E-01  -.11163E+00
0.24335E+01  -.86636E-01  -.11066E+00
0.24474E+01  -.88168E-01  -.10967E+00
0.24613E+01  -.89686E-01  -.10866E+00
0.24752E+01  -.91190E-01  -.10763E+00
0.24891E+01  -.92679E-01  -.10658E+00
0.25030E+01  -.94154E-01  -.10552E+00
0.25169E+01  -.95614E-01  -.10445E+00
0.25308E+01  -.97058E-01  -.10335E+00
0.25447E+01  -.98488E-01  -.10224E+00
0.25586E+01  -.99902E-01  -.10112E+00
0.25725E+01  -.10130E+00  -.99973E-01
0.25864E+01  -.10268E+00  -.98815E-01
0.26003E+01  -.10405E+00  -.97641E-01
0.26142E+01  -.10540E+00  -.96452E-01
0.26281E+01  -.10673E+00  -.95247E-01
0.26421E+01  -.10805E+00  -.94028E-01
0.26560E+01  -.10935E+00  -.92793E-01
0.26699E+01  -.11063E+00  -.91544E-01
0.26838E+01  -.11189E+00  -.90281E-01
0.26977E+01  -.11314E+00  -.89003E-01
0.27116E+01  -.11437E+00  -.87711E-01
0.27255E+01  -.11558E+00  -.86406E-01
0.27394E+01  -.11677E+00  -.85086E-01
0.27533E+01  -.11794E+00  -.83754E-01
0.27672E+01  -.11910E+00  -.82408E-01
0.27811E+01  -.12024E+00  -.81049E-01
0.27950E+01  -.12135E+00  -.79677E-01
0.28089E+01  -.12245E+00  -.78293E-01
0.28228E+01  -.12353E+00  -.76896E-01
0.28367E+01  -.12459E+00  -.75487E-01
0.28506E+01  -.12563E+00  -.74066E-01
0.28645E+01  -.12665E+00  -.72634E-01
0.28784E+01  -.12765E+00  -.71190E-01
0.28923E+01  -.12863E+00  -.69735E-01
0.29063E+01  -.12959E+00  -.68268E-01
0.29202E+01  -.13053E+00  -.66791E-01
0.29341E+01  -.13145E+00  -.65304E-01
0.29480E+01  -.13234E+00  -.63806E-01
0.29619E+01  -.13322E+00  -.62298E-01
0.29758E+01  -.13408E+00  -.60780E-01
0.29897E+01  -.13491E+00  -.59253E-01
0.30036E+01  -.13572E+00  -.57716E-01
0.30175E+01  -.13652E+00  -.56170E-01
0.30314E+01  -.13729E+00  -.54616E-01
0.30453E+01  -.13803E+00  -.53052E-01
0.30592E+01  -.13876E+00  -.51481E-01
0.30731E+01  -.13947E+00  -.49901E-01
0.30870E+01  -.14015E+00  -.48313E-01
0.31009E+01  -.14081E+00  -.46718E-01
0.31148E+01  -.14145E+00  -.45115E-01
0.31287E+01  -.14206E+00  -.43505E-01
0.31426E+01  -.14266E+00  -.41889E-01
0.31566E+01  -.14323E+00  -.40265E-01
0.31705E+01  -.14378E+00  -.38636E-01
0.31844E+01  -.14430E+00  -.37000E-01
0.31983E+01  -.14481E+00  -.35358E-01
0.32122E+01  -.14529E+00  -.33711E-01
0.32261E+01  -.14574E+00  -.32058E-01
0.32400E+01  -.14618E+00  -.30401E-01
0.32539E+01  -.14659E+00  -.28739E-01
0.32678E+01  -.14698E+00  -.27072E-01
0.32817E+01  -.14734E+00  -.25400E-01
0.32956E+01  -.14768E+00  -.23725E-01
0.33095E+01  -.14800E+00  -.22046E-01
0.33234E+01  -.14830E+00  -.20364E-01
0.33373E+01  -.14857E+00  -.18678E-01
0.33512E+01  -.14882E+00  -.16989E-01
0.33651E+01  -.14904E+00  -.15298E-01
0.33790E+01  -.14924E+00  -.13604E-01
0.33929E+01  -.14942E+00  -.11909E-01
0.34069E+01  -.14957E+00  -.10211E-01
0.34208E+01  -.14970E+00  -.85116E-02
0.34347E+01  -.14981E+00  -.68109E-02
0.34486E+01  -.14989E+00  -.51091E-02
0.34625E+01  -.14995E+00  -.34065E-02
0.34764E+01  -.14999E+00  -.17034E-02
0.34903E+01  -.15000E+00  -.20468E-07
0.35042E+01  -.14999E+00  0.17034E-02
0.35181E+01  -.14995E+00  0.34065E-02
0.35320E+01  -.14989E+00  0.51091E-02
0.35459E+01  -.14981E+00  0.68108E-02
0.35598E+01  -.14970E+00  0.85115E-02
0.35737E+01  -.14957E+00  0.10211E-01
0.35876E+01  -.14942E+00  0.11909E-01
0.36015E+01  -.14924E+00  0.13604E-01
0.36154E+01  -.14904E+00  0.15298E-01
0.36293E+01  -.14882E+00  0.16989E-01
0.36432E+01  -.14857E+00  0.18678E-01
0.36572E+01  -.14830E+00  0.20364E-01
0.36711E+01  -.14800E+00  0.22046E-01
0.36850E+01  -.14768E+00  0.23725E-01
0.36989E+01  -.14734E+00  0.25400E-01
0.37128E+01  -.14698E+00  0.27072E-01
0.37267E+01  -.14659E+00  0.28738E-01
0.37406E+01  -.14618E+00  0.30401E-01
0.37545E+01  -.14574E+00  0.32058E-01
0.37684E+01  -.14529E+00  0.33711E-01
0.37823E+01  -.14481E+00  0.35358E-01
0.37962E+01  -.14430E+00  0.37000E-01
0.38101E+01  -.14378E+00  0.38636E-01
0.38240E+01  -.14323E+00  0.40265E-01
0.38379E+01  -.14266E+00  0.41889E-01
0.38518E+01  -.14206E+00  0.43505E-01
0.38657E+01  -.14145E+00  0.45115E-01
0.38796E+01  -.14081E+00  0.46718E-01
0.38935E+01  -.14015E+00  0.48313E-01
0.39075E+01  -.13947E+00  0.49901E-01
0.39214E+01  -.13876E+00  0.51481E-01
0.39353E+01  -.13803E+00  0.53052E-01
0.39492E+01  -.13729E+00  0.54616E-01
0.39631E+01  -.13652E+00  0.56170E-01
0.39770E+01  -.13572E+00  0.57716E-01
0.39909E+01  -.13491E+00  0.59253E-01
0.40048E+01  -.13408E+00  0.60780E-01
0.40187E+01  -.13322E+00  0.62298E-01
0.40326E+01  -.13234E+00  0.63806E-01
0.40465E+01  -.13145E+00  0.65304E-01
0.40604E+01  -.13053E+00  0.66791E-01
0.40743E+01  -.12959E+00  0.68268E-01
0.40882E+01  -.12863E+00  0.69735E-01
0.41021E+01  -.12765E+00  0.71190E-01
0.41160E+01  -.12665E+00  0.72634E-01
0.41299E+01  -.12563E+00  0.74066E-01
0.41438E+01  -.12459E+00  0.75487E-01
0.41578E+01  -.12353E+00  0.76896E-01
0.41717E+01  -.12245E+00  0.78293E-01
0.41856E+01  -.12135E+00  0.79677E-01
0.41995E+01  -.12024E+00  0.81049E-01
0.42134E+01  -.11910E+00  0.82408E-01
0.42273E+01  -.11794E+00  0.83754E-01
0.42412E+01  -.11677E+00  0.85086E-01
0.42551E+01  -.11558E+00  0.86406E-01
0.42690E+01  -.11437E+00  0.87711E-01
0.42829E+01  -.11314E+00  0.89003E-01
0.42968E+01  -.11189E+00  0.90281E-01
0.43107E+01  -.11063E+00  0.91544E-01
0.43246E+01  -.10935E+00  0.92793E-01
0.43385E+01  -.10805E+00  0.94028E-01
0.43524E+01  -.10673E+00  0.95247E-01
0.43663E+01  -.10540E+00  0.96452E-01
0.43802E+01  -.10405E+00  0.97641E-01
0.43941E+01  -.10268E+00  0.98815E-01
0.44081E+01  -.10130E+00  0.99973E-01
0.44220E+01  -.99902E-01  0.10112E+00
0.44359E+01  -.98488E-01  0.10224E+00
0.44498E+01  -.97058E-01  0.10335E+00
0.44637E+01  -.95614E-01  0.10445E+00
0.44776E+01  -.94154E-01  0.10552E+00
0.44915E+01  -.92679E-01  0.10658E+00
0.45054E+01  -.91190E-01  0.10763E+00
0.45193E+01  -.89686E-01  0.10866E+00
0.45332E+01  -.88168E-01  0.10967E+00
0.45471E+01  -.86636E-01  0.11066E+00
0.45610E+01  -.85090E-01  0.11163E+00
0.45749E+01  -.83531E-01  0.11259E+00
0.45888E+01  -.81959E-01  0.11353E+00
0.46027E+01  -.80374E-01  0.11445E+00
0.46166E+01  -.78776E-01  0.11536E+00
0.46305E+01  -.77166E-01  0.11624E+00
0.46444E+01  -.75544E-01  0.11711E+00
0.46584E+01  -.73909E-01  0.11796E+00
0.46723E+01  -.72263E-01  0.11879E+00
0.46862E+01  -.70606E-01  0.11960E+00
0.47001E+01  -.68937E-01  0.12039E+00
0.47140E+01  -.67258E-01  0.12116E+00
0.47279E+01  -.65567E-01  0.12192E+00
0.47418E+01  -.63867E-01  0.12265E+00
0.47557E+01  -.62156E-01  0.12337E+00
0.47696E+01  -.60436E-01  0.12406E+00
0.47835E+01  -.58706E-01  0.12474E+00
0.47974E+01  -.56967E-01  0.12540E+00
0.48113E+01  -.55219E-01  0.12604E+00
0.48252E+01  -.53462E-01  0.12665E+00
0.48391E+01  -.51696E-01  0.12725E+00
0.48530E+01  -.49923E-01  0.12783E+00
0.48669E+01  -.48142E-01  0.12838E+00
0.48808E+01  -.46353E-01  0.12892E+00
0.48947E+01  -.44556E-01  0.12944E+00
0.49087E+01  -.42753E-01  0.12993E+00
0.49226E+01  -.40943E-01  0.13041E+00
0.49365E+01  -.39126E-01  0.13086E+00
0.49504E+01  -.37303E-01  0.13130E+00
0.49643E+01  -.35475E-01  0.13171E+00
0.49782E+01  -.33641E-01  0.13210E+00
0.49921E+01  -.31801E-01  0.13247E+00
0.50060E+01  -.29957E-01  0.13282E+00
0.50199E+01  -.28107E-01  0.13315E+00
0.50338E+01  -.26253E-01  0.13346E+00
0.50477E+01  -.24396E-01  0.13375E+00
0.50616E+01  -.22534E-01  0.13402E+00
0.50755E+01  -.20669E-01  0.13426E+00
0.50894E+01  -.18800E-01  0.13449E+00
0.51033E+01  -.16929E-01  0.13469E+00
0.51172E+01  -.15054E-01  0.13487E+00
0.51311E+01  -.13178E-01  0.13503E+00
0.51450E+01  -.11299E-01  0.13517E+00
0.51590E+01  -.94186E-02  0.13529E+00
0.51729E+01  -.75367E-02  0.13538E+00
0.51868E+01  -.56535E-02  0.13546E+00
0.52007E+01  -.37695E-02  0.13551E+00
0.52146E+01  -.18849E-02  0.13554E+00
0.52285E+01  0.17887E-08  0.13555E+00
0.52424E+01  0.18849E-02  0.13554E+00
0.52563E+01  0.37695E-02  0.13551E+00
0.52702E+01  0.56535E-02  0.13546E+00
0.52841E+01  0.75366E-02  0.13538E+00
0.52980E+01  0.94186E-02  0.13529E+00
0.53119E+01  0.11299E-01  0.13517E+00
0.53258E+01  0.13178E-01  0.13503E+00
0.53397E+01  0.15054E-01  0.13487E+00
0.53536E+01  0.16928E-01  0.13469E+00
0.53675E+01  0.18800E-01  0.13449E+00
0.53814E+01  0.20669E-01  0.13426E+00
0.53953E+01  0.22534E-01  0.13402E+00
0.54092E+01  0.24396E-01  0.13375E+00
0.54232E+01  0.26253E-01  0.13346E+00
0.54371E+01  0.28107E-01  0.13315E+00
0.54510E+01  0.29956E-01  0.13282E+00
0.54649E+01  0.31801E-01  0.13247E+00
0.54788E+01  0.33641E-01  0.13210E+00
0.54927E+01  0.35475E-01  0.13171E+00
0.55066E+01  0.37303E-01  0.13130E+00
0.55205E+01  0.39126E-01  0.13086E+00
0.55344E+01  0.40943E-01  0.13041E+00
0.55483E+01  0.42753E-01  0.12993E+00
0.55622E+01  0.44556E-01  0.12944E+00
0.55761E+01  0.46353E-01  0.12892E+00
0.55900E+01  0.48142E-01  0.12838E+00
0.56039E+01  0.49923E-01  0.12783E+00
0.56178E+01  0.51696E-01  0.12725E+00
0.56317E+01  0.53462E-01  0.12665E+00
0.56456E+01  0.55219E-01  0.12604E+00
0.56595E+01  0.56967E-01  0.12540E+00
0.56735E+01  0.58706E-01  0.12474E+00
0.56874E+01  0.60436E-01  0.12406E+00
0.57013E+01  0.62156E-01  0.12337E+00
0.57152E+01  0.63867E-01  0.12265E+00
0.57291E+01  0.65567E-01  0.12192E+00
0.57430E+01  0.67257E-01  0.12116E+00
0.57569E+01  0.68937E-01  0.12039E+00
0.57708E+01  0.70606E-01  0.11960E+00
0.57847E+01  0.72263E-01  0.11879E+00
0.57986E+01  0.73909E-01  0.11796E+00
0.58125E+01  0.75543E-01  0.11711E+00
0.58264E+01  0.77166E-01  0.11624E+00
0.58403E+01  0.78776E-01  0.11536E+00
0.58542E+01  0.80374E-01  0.11445E+00
0.58681E+01  0.81959E-01  0.11353E+00
0.58820E+01  0.83531E-01  0.11259E+00
0.58959E+01  0.85090E-01  0.11163E+00
0.59098E+01  0.86636E-01  0.11066E+00
0.59238E+01  0.88168E-01  0.10967E+00
0.59377E+01  0.89686E-01  0.10866E+00
0.59516E+01  0.91190E-01  0.10763E+00
0.59655E+01  0.92679E-01  0.10658E+00
0.59794E+01  0.94154E-01  0.10552E+00
0.59933E+01  0.95614E-01  0.10445E+00
0.60072E+01  0.97058E-01  0.10335E+00
0.60211E+01  0.98488E-01  0.10224E+00
0.60350E+01  0.99902E-01  0.10112E+00
0.60489E+01  0.10130E+00  0.99973E-01
0.60628E+01  0.10268E+00  0.98815E-01
0.60767E+01  0.10405E+00  0.97641E-01
0.60906E+01  0.10540E+00  0.96452E-01
0.61045E+01  0.10673E+00  0.95247E-01
0.61184E+01  0.10805E+00  0.94028E-01
0.61323E+01  0.10935E+00  0.92793E-01
0.61462E+01  0.11063E+00  0.91544E-01
0.61601E+01  0.11189E+00  0.90281E-01
0.61741E+01  0.11314E+00  0.89003E-01
0.61880E+01  0.11437E+00  0.87711E-01
0.62019E+01  0.11558E+00  0.86406E-01
0.62158E+01  0.11677E+00  0.85086E-01
0.62297E+01  0.11794E+00  0.83754E-01
0.62436E+01  0.11910E+00  0.82408E-01
0.62575E+01  0.12024E+00  0.81049E-01
0.62714E+01  0.12135E+00  0.79677E-01
0.62853E+01  0.12245E+00  0.78293E-01
0.62992E+01  0.12353E+00  0.76896E-01
0.63131E+01  0.12459E+00  0.75487E-01
0.63270E+01  0.12563E+00  0.74066E-01
0.63409E+01  0.12665E+00  0.72634E-01
0.63548E+01  0.12765E+00  0.71190E-01
0.63687E+01  0.12863E+00  0.69735E-01
0.63826E+01  0.12959E+00  0.68268E-01
0.63965E+01  0.13053E+00  0.66791E-01
0.64104E+01  0.13145E+00  0.65304E-01
0.64244E+01  0.13234E+00  0.63806E-01
0.64383E+01  0.13322E+00  0.62298E-01
0.64522E+01  0.13408E+00  0.60780E-01
0.64661E+01  0.13491E+00  0.59253E-01
0.64800E+01  0.13572E+00  0.57716E-01
0.64939E+01  0.13652E+00  0.56170E-01
0.65078E+01  0.13729E+00  0.54616E-01
0.65217E+01  0.13803E+00  0.53052E-01
0.65356E+01  0.13876E+00  0.51481E-01
0.65495E+01  0.13947E+00  0.49901E-01
0.65634E+01  0.14015E+00  0.48313E-01
0.65773E+01  0.14081E+00  0.46718E-01
0.65912E+01  0.14145E+00  0.45115E-01
0.66051E+01  0.14206E+00  0.43505E-01
0.66190E+01  0.14266E+00  0.41889E-01
0.66329E+01  0.14323E+00  0.40265E-01
0.66468E+01  0.14378E+00  0.38636E-01
0.66607E+01  0.14430E+00  0.37000E-01
0.66747E+01  0.14481E+00  0.35358E-01
0.66886E+01  0.14529E+00  0.33711E-01
0.67025E+01  0.14574E+00  0.32059E-01
0.67164E+01  0.14618E+00  0.30401E-01
0.67303E+01  0.14659E+00  0.28739E-01
0.67442E+01  0.14698E+00  0.27072E-01
0.67581E+01  0.14734E+00  0.25400E-01
0.67720E+01  0.14768E+00  0.23725E-01
0.67859E+01  0.14800E+00  0.22046E-01
0.67998E+01  0.14830E+00  0.20364E-01
0.68137E+01  0.14857E+00  0.18678E-01
0.68276E+01  0.14882E+00  0.16990E-01
0.68415E+01  0.14904E+00  0.15298E-01
0.68554E+01  0.14924E+00  0.13605E-01
0.68693E+01  0.14942E+00  0.11909E-01
0.68832E+01  0.14957E+00  0.10211E-01
0.68971E+01  0.14970E+00  0.85116E-02
0.69110E+01  0.14981E+00  0.68109E-02
0.69250E+01  0.14989E+00  0.51091E-02
0.69389E+01  0.14995E+00  0.34065E-02
0.69528E+01  0.14999E+00  0.17034E-02
0.69667E+01  0.15000E+00  0.40936E-07
