#          t               x(t)              vx(t)             y(t)              vy(t)                T                U                E
     0.1000000E+02     0.9680217E+00    -0.3045608E-02     0.1740515E+00     0.1722421E-01     0.4591685E-09     0.9047743E-09     0.1809549E-08
     0.2000000E+02     0.9227098E+00    -0.5992172E-02     0.3427038E+00     0.1641916E-01     0.4584869E-09     0.9040964E-09     0.1808193E-08
     0.3000000E+02     0.8488258E+00    -0.8744734E-02     0.5007495E+00     0.1510912E-01     0.4573775E-09     0.9029897E-09     0.1805979E-08
     0.4000000E+02     0.7487533E+00    -0.1121622E-01     0.6433540E+00     0.1333992E-01     0.4558785E-09     0.9014926E-09     0.1802985E-08
     0.5000000E+02     0.6256929E+00    -0.1333073E-01     0.7662190E+00     0.1117248E-01     0.4540409E-09     0.8996556E-09     0.1799311E-08
     0.6000000E+02     0.4835377E+00    -0.1502606E-01     0.8657187E+00     0.8679895E-02     0.4519254E-09     0.8975396E-09     0.1795079E-08
     0.7000000E+02     0.3267265E+00    -0.1625549E-01     0.9390058E+00     0.5944162E-02     0.4496006E-09     0.8952130E-09     0.1790426E-08
     0.8000000E+02     0.1600840E+00    -0.1698866E-01     0.9840828E+00     0.3052750E-02     0.4471390E-09     0.8927483E-09     0.1785497E-08
     0.9000000E+02    -0.1134445E-01    -0.1721171E-01     0.9998407E+00     0.9527717E-04     0.4446149E-09     0.8902198E-09     0.1780440E-08
     0.1000000E+03    -0.1824551E+00    -0.1692673E-01     0.9860642E+00    -0.2839562E-02     0.4421015E-09     0.8877007E-09     0.1775401E-08
     0.1100000E+03    -0.3482407E+00    -0.1615069E-01     0.9434091E+00    -0.5666694E-02     0.4396687E-09     0.8852611E-09     0.1770522E-08
     0.1200000E+03    -0.5039320E+00    -0.1491399E-01     0.8733542E+00    -0.8306913E-02     0.4373809E-09     0.8829653E-09     0.1765931E-08
     0.1300000E+03    -0.6451242E+00    -0.1325875E-01     0.7781334E+00    -0.1068868E-01     0.4352956E-09     0.8808713E-09     0.1761743E-08
     0.1400000E+03    -0.7678847E+00    -0.1123707E-01     0.6606516E+00    -0.1274948E-01     0.4334625E-09     0.8790288E-09     0.1758058E-08
     0.1500000E+03    -0.8688441E+00    -0.8909151E-02     0.5243899E+00    -0.1443682E-01     0.4319222E-09     0.8774788E-09     0.1754958E-08
     0.1600000E+03    -0.9452684E+00    -0.6341582E-02     0.3733008E+00    -0.1570888E-01     0.4307063E-09     0.8762533E-09     0.1752507E-08
     0.1700000E+03    -0.9951141E+00    -0.3605625E-02     0.2117001E+00    -0.1653496E-01     0.4298375E-09     0.8753754E-09     0.1750751E-08
     0.1800000E+03    -0.1017067E+01    -0.7756217E-03     0.4415387E-01    -0.1689573E-01     0.4293296E-09     0.8748592E-09     0.1749718E-08
     0.1900000E+03    -0.1010566E+01     0.2072535E-02    -0.1246357E+00    -0.1678326E-01     0.4291887E-09     0.8747113E-09     0.1749423E-08
     0.2000000E+03    -0.9758094E+00     0.4862867E-02    -0.2899445E+00    -0.1620110E-01     0.4294137E-09     0.8749309E-09     0.1749862E-08
     0.2100000E+03    -0.9137505E+00     0.7520754E-02    -0.4471404E+00    -0.1516411E-01     0.4299972E-09     0.8755107E-09     0.1751021E-08
     0.2200000E+03    -0.8260757E+00     0.9974371E-02    -0.5917960E+00    -0.1369828E-01     0.4309261E-09     0.8764376E-09     0.1752875E-08
     0.2300000E+03    -0.7151698E+00     0.1215614E-01    -0.7197980E+00    -0.1184041E-01     0.4321810E-09     0.8776921E-09     0.1755384E-08
     0.2400000E+03    -0.5840659E+00     0.1400425E-01    -0.8274535E+00    -0.9637658E-02     0.4337364E-09     0.8792487E-09     0.1758497E-08
     0.2500000E+03    -0.4363798E+00     0.1546415E-01    -0.9115903E+00    -0.7146926E-02     0.4355599E-09     0.8810745E-09     0.1762149E-08
     0.2600000E+03    -0.2762303E+00     0.1649016E-01    -0.9696504E+00    -0.4433983E-02     0.4376116E-09     0.8831294E-09     0.1766259E-08
     0.2700000E+03    -0.1081418E+00     0.1704702E-01    -0.9997736E+00    -0.1572359E-02     0.4398442E-09     0.8853659E-09     0.1770732E-08
     0.2800000E+03     0.6306704E-01     0.1711141E-01    -0.1000868E+01     0.1358107E-02     0.4422032E-09     0.8877294E-09     0.1775459E-08
     0.2900000E+03     0.2324101E+00     0.1667337E-01    -0.9726629E+00     0.4273070E-02     0.4446278E-09     0.8901590E-09     0.1780318E-08
     0.3000000E+03     0.3948731E+00     0.1573743E-01    -0.9157468E+00     0.7085867E-02     0.4470525E-09     0.8925890E-09     0.1785178E-08
     0.3100000E+03     0.5455634E+00     0.1432342E-01    -0.8315745E+00     0.9710077E-02     0.4494084E-09     0.8949504E-09     0.1789901E-08
     0.3200000E+03     0.6798646E+00     0.1246684E-01    -0.7224523E+00     0.1206239E-01     0.4516260E-09     0.8971737E-09     0.1794347E-08
     0.3300000E+03     0.7935929E+00     0.1021857E-01    -0.5914910E+00     0.1406572E-01     0.4536371E-09     0.8991907E-09     0.1798381E-08
     0.3400000E+03     0.8831464E+00     0.7643863E-02    -0.4425284E+00     0.1565231E-01     0.4553780E-09     0.9009375E-09     0.1801875E-08
     0.3500000E+03     0.9456407E+00     0.4820656E-02    -0.2800200E+00     0.1676684E-01     0.4567920E-09     0.9023576E-09     0.1804715E-08
     0.3600000E+03     0.9790241E+00     0.1837050E-02    -0.1089012E+00     0.1736905E-01     0.4578322E-09     0.9034036E-09     0.1806807E-08
     0.3700000E+03     0.9821637E+00    -0.1211842E-02     0.6557446E-01     0.1743591E-01     0.4584635E-09     0.9040405E-09     0.1808081E-08
     0.3800000E+03     0.9548979E+00    -0.4227568E-02     0.2380153E+00     0.1696293E-01     0.4586645E-09     0.9042467E-09     0.1808493E-08
     0.3900000E+03     0.8980495E+00    -0.7112311E-02     0.4030801E+00     0.1596469E-01     0.4584286E-09     0.9040155E-09     0.1808031E-08
     0.4000000E+03     0.8133998E+00    -0.9772887E-02     0.5556666E+00     0.1447427E-01     0.4577646E-09     0.9033555E-09     0.1806711E-08
     0.4100000E+03     0.7036229E+00    -0.1212451E-01     0.6910905E+00     0.1254184E-01     0.4566958E-09     0.9022900E-09     0.1804580E-08
     0.4200000E+03     0.5721847E+00    -0.1409408E-01     0.8052453E+00     0.1023237E-01     0.4552593E-09     0.9008557E-09     0.1801711E-08
     0.4300000E+03     0.4232129E+00    -0.1562272E-01     0.8947363E+00     0.7622693E-02     0.4535039E-09     0.8991015E-09     0.1798203E-08
     0.4400000E+03     0.2613447E+00    -0.1666761E-01     0.9569824E+00     0.4798144E-02     0.4514878E-09     0.8970855E-09     0.1794171E-08
     0.4500000E+03     0.9156134E-01    -0.1720288E-01     0.9902839E+00     0.1849056E-02     0.4492764E-09     0.8948730E-09     0.1789746E-08
     0.4600000E+03    -0.8098277E-01    -0.1721968E-01     0.9938547E+00    -0.1132726E-02     0.4469390E-09     0.8925333E-09     0.1785067E-08
     0.4700000E+03    -0.2511278E+00    -0.1672563E-01     0.9678213E+00    -0.4057061E-02     0.4445468E-09     0.8901374E-09     0.1780275E-08
     0.4800000E+03    -0.4138672E+00    -0.1574356E-01     0.9131911E+00    -0.6838349E-02     0.4421698E-09     0.8877556E-09     0.1775511E-08
     0.4900000E+03    -0.5644924E+00    -0.1430991E-01     0.8317945E+00    -0.9397887E-02     0.4398752E-09     0.8854548E-09     0.1770910E-08
     0.5000000E+03    -0.6987196E+00    -0.1247284E-01     0.7262068E+00    -0.1166574E-01     0.4377250E-09     0.8832974E-09     0.1766595E-08
     0.5100000E+03    -0.8127965E+00    -0.1029021E-01     0.5996527E+00    -0.1358210E-01     0.4357749E-09     0.8813392E-09     0.1762678E-08
     0.5200000E+03    -0.9035897E+00    -0.7827551E-02     0.4559002E+00    -0.1509826E-01     0.4340732E-09     0.8796283E-09     0.1759257E-08
     0.5300000E+03    -0.9686510E+00    -0.5156064E-02     0.2991464E+00    -0.1617717E-01     0.4326594E-09     0.8782047E-09     0.1756409E-08
     0.5400000E+03    -0.1006265E+01    -0.2350761E-02     0.1338992E+00    -0.1679375E-01     0.4315642E-09     0.8770992E-09     0.1754198E-08
     0.5500000E+03    -0.1015477E+01     0.5113044E-03    -0.3514262E-01    -0.1693492E-01     0.4308089E-09     0.8763333E-09     0.1752667E-08
     0.5600000E+03    -0.9961078E+00     0.3352671E-02    -0.2032093E+00    -0.1659950E-01     0.4304053E-09     0.8759193E-09     0.1751839E-08
     0.5700000E+03    -0.9487472E+00     0.6097023E-02    -0.3655779E+00    -0.1579802E-01     0.4303562E-09     0.8758603E-09     0.1751721E-08
     0.5800000E+03    -0.8747368E+00     0.8670664E-02    -0.5176878E+00    -0.1455233E-01     0.4306557E-09     0.8761508E-09     0.1752302E-08
     0.5900000E+03    -0.7761357E+00     0.1100397E-01    -0.6552519E+00    -0.1289520E-01     0.4312900E-09     0.8767774E-09     0.1753555E-08
     0.6000000E+03    -0.6556731E+00     0.1303279E-01    -0.7743630E+00    -0.1086977E-01     0.4322388E-09     0.8777199E-09     0.1755440E-08
     0.6100000E+03    -0.5166864E+00     0.1469993E-01    -0.8715948E+00    -0.8528880E-02     0.4334755E-09     0.8789523E-09     0.1757905E-08
     0.6200000E+03    -0.3630442E+00     0.1595650E-01    -0.9440938E+00    -0.5934207E-02     0.4349690E-09     0.8804433E-09     0.1760887E-08
     0.6300000E+03    -0.1990565E+00     0.1676340E-01    -0.9896637E+00    -0.3155207E-02     0.4366832E-09     0.8821567E-09     0.1764313E-08
     0.6400000E+03    -0.2936982E-01     0.1709262E-01    -0.1006836E+01    -0.2678026E-03     0.4385777E-09     0.8840521E-09     0.1768104E-08
     0.6500000E+03     0.1411499E+00     0.1692850E-01    -0.9949274E+00     0.2647216E-02     0.4406075E-09     0.8860840E-09     0.1772168E-08
     0.6600000E+03     0.3075467E+00     0.1626882E-01    -0.9540788E+00     0.5506087E-02     0.4427231E-09     0.8882030E-09     0.1776406E-08
     0.6700000E+03     0.4649129E+00     0.1512561E-01    -0.8852748E+00     0.8224276E-02     0.4448713E-09     0.8903554E-09     0.1780711E-08
     0.6800000E+03     0.6085346E+00     0.1352561E-01    -0.7903388E+00     0.1071896E-01     0.4469954E-09     0.8924844E-09     0.1784969E-08
     0.6900000E+03     0.7340389E+00     0.1151026E-01    -0.6719029E+00     0.1291171E-01     0.4490372E-09     0.8945315E-09     0.1789063E-08
     0.7000000E+03     0.8375393E+00     0.9135210E-02    -0.5333493E+00     0.1473137E-01     0.4509384E-09     0.8964384E-09     0.1792877E-08
     0.7100000E+03     0.9157716E+00     0.6469082E-02    -0.3787242E+00     0.1611682E-01     0.4526427E-09     0.8981486E-09     0.1796297E-08
     0.7200000E+03     0.9662158E+00     0.3591707E-02    -0.2126231E+00     0.1701971E-01     0.4540983E-09     0.8996102E-09     0.1799220E-08
     0.7300000E+03     0.9871962E+00     0.5916370E-03    -0.4005147E-01     0.1740674E-01     0.4552596E-09     0.9007775E-09     0.1801555E-08
     0.7400000E+03     0.9779535E+00    -0.2436886E-02     0.1337354E+00     0.1726150E-01     0.4560898E-09     0.9016135E-09     0.1803227E-08
     0.7500000E+03     0.9386853E+00    -0.5397403E-02     0.3034075E+00     0.1658556E-01     0.4565624E-09     0.9020916E-09     0.1804183E-08
     0.7600000E+03     0.8705492E+00    -0.8194967E-02     0.4637418E+00     0.1539876E-01     0.4566625E-09     0.9021969E-09     0.1804394E-08
     0.7700000E+03     0.7756291E+00    -0.1073988E-01     0.6098033E+00     0.1373868E-01     0.4563878E-09     0.9019269E-09     0.1803854E-08
     0.7800000E+03     0.6568646E+00    -0.1295126E-01     0.7371155E+00     0.1165913E-01     0.4557485E-09     0.9012916E-09     0.1802583E-08
     0.7900000E+03     0.5179473E+00    -0.1476009E-01     0.8418127E+00     0.9228011E-02     0.4547671E-09     0.9003135E-09     0.1800627E-08
     0.8000000E+03     0.3631885E+00    -0.1611176E-01     0.9207667E+00     0.6524441E-02     0.4534772E-09     0.8990261E-09     0.1798052E-08
     0.8100000E+03     0.1973664E+00    -0.1696773E-01     0.9716831E+00     0.3635504E-02     0.4519221E-09     0.8974725E-09     0.1794945E-08
     0.8200000E+03     0.2555974E-01    -0.1730652E-01     0.9931641E+00     0.6527860E-03     0.4501527E-09     0.8957037E-09     0.1791407E-08
     0.8300000E+03    -0.1470238E+00    -0.1712378E-01     0.9847353E+00    -0.2331069E-02     0.4482258E-09     0.8937762E-09     0.1787552E-08
     0.8400000E+03    -0.3152165E+00    -0.1643173E-01     0.9468409E+00    -0.5225613E-02     0.4462011E-09     0.8917500E-09     0.1783500E-08
     0.8500000E+03    -0.4740511E+00    -0.1525794E-01     0.8808061E+00    -0.7945486E-02     0.4441402E-09     0.8896863E-09     0.1779373E-08
     0.8600000E+03    -0.6189060E+00    -0.1364371E-01     0.7887739E+00    -0.1041286E-01     0.4421033E-09     0.8876456E-09     0.1775291E-08
     0.8700000E+03    -0.7456328E+00    -0.1164204E-01     0.6736196E+00    -0.1255940E-01     0.4401483E-09     0.8856859E-09     0.1771372E-08
     0.8800000E+03    -0.8506634E+00    -0.9315584E-02     0.5388480E+00    -0.1432771E-01     0.4383289E-09     0.8838606E-09     0.1767721E-08
     0.8900000E+03    -0.9310946E+00    -0.6734360E-02     0.3884790E+00    -0.1567233E-01     0.4366931E-09     0.8822180E-09     0.1764436E-08
     0.9000000E+03    -0.9847519E+00    -0.3973654E-02     0.2269249E+00    -0.1656031E-01     0.4352826E-09     0.8807999E-09     0.1761600E-08
     0.9100000E+03    -0.1010231E+01    -0.1111924E-02     0.5886367E-01    -0.1697146E-01     0.4341316E-09     0.8796405E-09     0.1759281E-08
     0.9200000E+03    -0.1006919E+01     0.1771128E-02    -0.1108886E+00    -0.1689832E-01     0.4332664E-09     0.8787662E-09     0.1757532E-08
     0.9300000E+03    -0.9750012E+00     0.4596376E-02    -0.2775040E+00    -0.1634593E-01     0.4327048E-09     0.8781951E-09     0.1756390E-08
     0.9400000E+03    -0.9154413E+00     0.7286941E-02    -0.4362654E+00    -0.1533137E-01     0.4324563E-09     0.8779368E-09     0.1755874E-08
     0.9500000E+03    -0.8299554E+00     0.9769779E-02    -0.5826851E+00    -0.1388327E-01     0.4325213E-09     0.8779920E-09     0.1755984E-08
     0.9600000E+03    -0.7209646E+00     0.1197717E-01    -0.7126162E+00    -0.1204111E-01     0.4328921E-09     0.8783532E-09     0.1756706E-08
     0.9700000E+03    -0.5915343E+00     0.1384816E-01    -0.8223578E+00    -0.9854410E-02     0.4335524E-09     0.8790047E-09     0.1758009E-08
     0.9800000E+03    -0.4452999E+00     0.1532993E-01    -0.9087506E+00    -0.7381840E-02     0.4344789E-09     0.8799232E-09     0.1759846E-08
     0.9900000E+03    -0.2863788E+00     0.1637914E-01    -0.9692632E+00    -0.4690069E-02     0.4356416E-09     0.8810791E-09     0.1762158E-08
     0.1000000E+04    -0.1192690E+00     0.1696319E-01    -0.1002065E+01    -0.1852484E-02     0.4370053E-09     0.8824377E-09     0.1764875E-08
     0.1010000E+04     0.5126408E-01     0.1706138E-01    -0.1006088E+01     0.1052352E-02     0.4385310E-09     0.8839601E-09     0.1767920E-08
     0.1020000E+04     0.2203115E+00     0.1666589E-01    -0.9810672E+00     0.3942470E-02     0.4401771E-09     0.8856045E-09     0.1771209E-08
     0.1030000E+04     0.3829542E+00     0.1578255E-01    -0.9275658E+00     0.6734529E-02     0.4418999E-09     0.8873274E-09     0.1774655E-08
     0.1040000E+04     0.5344014E+00     0.1443133E-01    -0.8469787E+00     0.9346071E-02     0.4436550E-09     0.8890841E-09     0.1778168E-08
     0.1050000E+04     0.6701334E+00     0.1264637E-01    -0.7415106E+00     0.1169797E-01     0.4453970E-09     0.8908291E-09     0.1781658E-08
     0.1060000E+04     0.7860415E+00     0.1047565E-01    -0.6141299E+00     0.1371699E-01     0.4470809E-09     0.8925169E-09     0.1785034E-08
     0.1070000E+04     0.8785622E+00     0.7980070E-02    -0.4684973E+00     0.1533842E-01     0.4486620E-09     0.8941027E-09     0.1788205E-08
     0.1080000E+04     0.9448003E+00     0.5232044E-02    -0.3088675E+00     0.1650851E-01     0.4500975E-09     0.8955435E-09     0.1791087E-08
     0.1090000E+04     0.9826338E+00     0.2313472E-02    -0.1399682E+00     0.1718679E-01     0.4513476E-09     0.8967992E-09     0.1793598E-08
     0.1100000E+04     0.9907971E+00    -0.6867561E-03     0.3314282E-01     0.1734797E-01     0.4523769E-09     0.8978342E-09     0.1795668E-08
     0.1110000E+04     0.9689362E+00    -0.3675725E-02     0.2052365E+00     0.1698328E-01     0.4531559E-09     0.8986189E-09     0.1797238E-08
     0.1120000E+04     0.9176327E+00    -0.6559766E-02     0.3710820E+00     0.1610123E-01     0.4536623E-09     0.8991308E-09     0.1798262E-08
     0.1130000E+04     0.8383946E+00    -0.9247895E-02     0.5256208E+00     0.1472763E-01     0.4538818E-09     0.8993557E-09     0.1798711E-08
     0.1140000E+04     0.7336118E+00    -0.1165522E-01     0.6641356E+00     0.1290481E-01     0.4538095E-09     0.8992882E-09     0.1798576E-08
     0.1150000E+04     0.6064794E+00    -0.1370615E-01     0.7824095E+00     0.1069018E-01     0.4534493E-09     0.8989325E-09     0.1797865E-08
     0.1160000E+04     0.4608903E+00    -0.1533712E-01     0.8768663E+00     0.8154033E-02     0.4528148E-09     0.8983017E-09     0.1796603E-08
     0.1170000E+04     0.3013027E+00    -0.1649891E-01     0.9446859E+00     0.5376855E-02     0.4519278E-09     0.8974179E-09     0.1794836E-08
     0.1180000E+04     0.1325892E+00    -0.1715812E-01     0.9838915E+00     0.2446245E-02     0.4508182E-09     0.8963107E-09     0.1792621E-08
     0.1190000E+04    -0.4012699E-01    -0.1729807E-01     0.9934042E+00    -0.5463565E-03     0.4495224E-09     0.8950165E-09     0.1790033E-08
     0.1200000E+04    -0.2116401E+00    -0.1691890E-01     0.9730647E+00    -0.3508961E-02     0.4480821E-09     0.8935769E-09     0.1787154E-08
     0.1210000E+04    -0.3768277E+00    -0.1603703E-01     0.9236236E+00    -0.6352160E-02     0.4465422E-09     0.8920370E-09     0.1784074E-08
     0.1220000E+04    -0.5308086E+00    -0.1468400E-01     0.8467004E+00    -0.8991962E-02     0.4449501E-09     0.8904438E-09     0.1780888E-08
     0.1230000E+04    -0.6690863E+00    -0.1290495E-01     0.7447171E+00    -0.1135224E-01     0.4433532E-09     0.8888451E-09     0.1777690E-08
     0.1240000E+04    -0.7876757E+00    -0.1075663E-01     0.6208093E+00    -0.1336675E-01     0.4417980E-09     0.8872872E-09     0.1774574E-08
     0.1250000E+04    -0.8832081E+00    -0.8305289E-02     0.4787191E+00    -0.1498059E-01     0.4403288E-09     0.8858144E-09     0.1771629E-08
     0.1260000E+04    -0.9530158E+00    -0.5624409E-02     0.3226758E+00    -0.1615139E-01     0.4389859E-09     0.8844671E-09     0.1768934E-08
     0.1270000E+04    -0.9951924E+00    -0.2792466E-02     0.1572674E+00    -0.1684983E-01     0.4378054E-09     0.8832815E-09     0.1766563E-08
     0.1280000E+04    -0.1008632E+01     0.1092854E-03    -0.1269190E-01    -0.1706003E-01     0.4368179E-09     0.8822881E-09     0.1764576E-08
     0.1290000E+04    -0.9930473E+00     0.2998921E-02    -0.1822959E+00    -0.1677946E-01     0.4360481E-09     0.8815117E-09     0.1763023E-08
     0.1300000E+04    -0.9489634E+00     0.5795827E-02    -0.3466788E+00    -0.1601862E-01     0.4355140E-09     0.8809705E-09     0.1761941E-08
     0.1310000E+04    -0.8776985E+00     0.8422562E-02    -0.5011430E+00    -0.1480057E-01     0.4352268E-09     0.8806758E-09     0.1761352E-08
     0.1320000E+04    -0.7813219E+00     0.1080658E-01    -0.6412813E+00    -0.1316018E-01     0.4351908E-09     0.8806319E-09     0.1761264E-08
     0.1330000E+04    -0.6625970E+00     0.1288184E-01    -0.7630904E+00    -0.1114325E-01     0.4354029E-09     0.8808358E-09     0.1761672E-08
     0.1340000E+04    -0.5249087E+00     0.1459032E-01    -0.8630758E+00    -0.8805465E-02     0.4358527E-09     0.8812775E-09     0.1762555E-08
     0.1350000E+04    -0.3721765E+00     0.1588336E-01    -0.9383440E+00    -0.6211210E-02     0.4365232E-09     0.8819400E-09     0.1763880E-08
     0.1360000E+04    -0.2087541E+00     0.1672299E-01    -0.9866833E+00    -0.3432148E-02     0.4373903E-09     0.8827997E-09     0.1765599E-08
