#          t               x(t)              vx(t)             y(t)              vy(t)                T                U                E
     0.1000000E+00     0.9832898E+00    -0.3062251E-04     0.1749577E-02     0.1749575E-01     0.4593983E-09     0.9049998E-09     0.1810000E-08
     0.2000000E+00     0.9832852E+00    -0.6124493E-04     0.3499149E-02     0.1749567E-01     0.4593983E-09     0.9049998E-09     0.1810000E-08
     0.3000000E+00     0.9832776E+00    -0.9186714E-04     0.5248710E-02     0.1749553E-01     0.4593981E-09     0.9049998E-09     0.1810000E-08
     0.4000000E+00     0.9832668E+00    -0.1224891E-03     0.6998254E-02     0.1749534E-01     0.4593980E-09     0.9049996E-09     0.1809999E-08
     0.5000000E+00     0.9832531E+00    -0.1531106E-03     0.8747777E-02     0.1749510E-01     0.4593978E-09     0.9049995E-09     0.1809999E-08
     0.6000000E+00     0.9832362E+00    -0.1837316E-03     0.1049727E-01     0.1749480E-01     0.4593975E-09     0.9049993E-09     0.1809999E-08
     0.7000000E+00     0.9832163E+00    -0.2143520E-03     0.1224673E-01     0.1749445E-01     0.4593972E-09     0.9049990E-09     0.1809998E-08
     0.8000000E+00     0.9831933E+00    -0.2449717E-03     0.1399616E-01     0.1749404E-01     0.4593969E-09     0.9049987E-09     0.1809997E-08
     0.9000000E+00     0.9831673E+00    -0.2755906E-03     0.1574554E-01     0.1749357E-01     0.4593965E-09     0.9049984E-09     0.1809997E-08
     0.1000000E+01     0.9831382E+00    -0.3062086E-03     0.1749487E-01     0.1749306E-01     0.4593961E-09     0.9049980E-09     0.1809996E-08
     0.1100000E+01     0.9831061E+00    -0.3368256E-03     0.1924415E-01     0.1749248E-01     0.4593956E-09     0.9049975E-09     0.1809995E-08
     0.1200000E+01     0.9830709E+00    -0.3674415E-03     0.2099337E-01     0.1749186E-01     0.4593950E-09     0.9049971E-09     0.1809994E-08
     0.1300000E+01     0.9830326E+00    -0.3980562E-03     0.2274252E-01     0.1749118E-01     0.4593945E-09     0.9049965E-09     0.1809993E-08
     0.1400000E+01     0.9829913E+00    -0.4286697E-03     0.2449160E-01     0.1749044E-01     0.4593938E-09     0.9049959E-09     0.1809992E-08
     0.1500000E+01     0.9829469E+00    -0.4592817E-03     0.2624061E-01     0.1748965E-01     0.4593932E-09     0.9049953E-09     0.1809991E-08
     0.1600000E+01     0.9828994E+00    -0.4898922E-03     0.2798953E-01     0.1748881E-01     0.4593925E-09     0.9049947E-09     0.1809989E-08
     0.1700000E+01     0.9828489E+00    -0.5205011E-03     0.2973837E-01     0.1748791E-01     0.4593917E-09     0.9049939E-09     0.1809988E-08
     0.1800000E+01     0.9827953E+00    -0.5511083E-03     0.3148711E-01     0.1748696E-01     0.4593909E-09     0.9049932E-09     0.1809986E-08
     0.1900000E+01     0.9827387E+00    -0.5817137E-03     0.3323576E-01     0.1748595E-01     0.4593900E-09     0.9049924E-09     0.1809985E-08
     0.2000000E+01     0.9826790E+00    -0.6123172E-03     0.3498430E-01     0.1748489E-01     0.4593891E-09     0.9049915E-09     0.1809983E-08
     0.2100000E+01     0.9826162E+00    -0.6429187E-03     0.3673273E-01     0.1748377E-01     0.4593882E-09     0.9049906E-09     0.1809981E-08
     0.2200000E+01     0.9825504E+00    -0.6735181E-03     0.3848105E-01     0.1748260E-01     0.4593872E-09     0.9049897E-09     0.1809979E-08
     0.2300000E+01     0.9824815E+00    -0.7041153E-03     0.4022925E-01     0.1748137E-01     0.4593862E-09     0.9049887E-09     0.1809977E-08
     0.2400000E+01     0.9824095E+00    -0.7347102E-03     0.4197732E-01     0.1748009E-01     0.4593851E-09     0.9049876E-09     0.1809975E-08
     0.2500000E+01     0.9823345E+00    -0.7653027E-03     0.4372527E-01     0.1747876E-01     0.4593840E-09     0.9049866E-09     0.1809973E-08
     0.2600000E+01     0.9822565E+00    -0.7958926E-03     0.4547307E-01     0.1747737E-01     0.4593828E-09     0.9049854E-09     0.1809971E-08
     0.2700000E+01     0.9821754E+00    -0.8264800E-03     0.4722074E-01     0.1747593E-01     0.4593816E-09     0.9049842E-09     0.1809968E-08
     0.2800000E+01     0.9820912E+00    -0.8570647E-03     0.4896826E-01     0.1747443E-01     0.4593803E-09     0.9049830E-09     0.1809966E-08
     0.2900000E+01     0.9820040E+00    -0.8876466E-03     0.5071562E-01     0.1747288E-01     0.4593790E-09     0.9049818E-09     0.1809964E-08
     0.3000000E+01     0.9819137E+00    -0.9182256E-03     0.5246283E-01     0.1747127E-01     0.4593776E-09     0.9049804E-09     0.1809961E-08
     0.3100000E+01     0.9818203E+00    -0.9488016E-03     0.5420988E-01     0.1746961E-01     0.4593762E-09     0.9049791E-09     0.1809958E-08
     0.3200000E+01     0.9817239E+00    -0.9793745E-03     0.5595675E-01     0.1746790E-01     0.4593748E-09     0.9049777E-09     0.1809955E-08
     0.3300000E+01     0.9816244E+00    -0.1009944E-02     0.5770345E-01     0.1746613E-01     0.4593733E-09     0.9049762E-09     0.1809952E-08
     0.3400000E+01     0.9815219E+00    -0.1040511E-02     0.5944997E-01     0.1746430E-01     0.4593717E-09     0.9049747E-09     0.1809949E-08
     0.3500000E+01     0.9814163E+00    -0.1071074E-02     0.6119631E-01     0.1746243E-01     0.4593701E-09     0.9049732E-09     0.1809946E-08
     0.3600000E+01     0.9813077E+00    -0.1101633E-02     0.6294246E-01     0.1746049E-01     0.4593685E-09     0.9049716E-09     0.1809943E-08
     0.3700000E+01     0.9811960E+00    -0.1132189E-02     0.6468841E-01     0.1745851E-01     0.4593668E-09     0.9049699E-09     0.1809940E-08
     0.3800000E+01     0.9810813E+00    -0.1162741E-02     0.6643416E-01     0.1745647E-01     0.4593651E-09     0.9049683E-09     0.1809937E-08
     0.3900000E+01     0.9809635E+00    -0.1193290E-02     0.6817970E-01     0.1745437E-01     0.4593633E-09     0.9049665E-09     0.1809933E-08
     0.4000000E+01     0.9808426E+00    -0.1223834E-02     0.6992503E-01     0.1745222E-01     0.4593615E-09     0.9049648E-09     0.1809930E-08
     0.4100000E+01     0.9807187E+00    -0.1254375E-02     0.7167014E-01     0.1745002E-01     0.4593596E-09     0.9049629E-09     0.1809926E-08
     0.4200000E+01     0.9805917E+00    -0.1284911E-02     0.7341503E-01     0.1744776E-01     0.4593577E-09     0.9049611E-09     0.1809922E-08
     0.4300000E+01     0.9804617E+00    -0.1315443E-02     0.7515969E-01     0.1744544E-01     0.4593558E-09     0.9049591E-09     0.1809918E-08
     0.4400000E+01     0.9803286E+00    -0.1345971E-02     0.7690412E-01     0.1744308E-01     0.4593537E-09     0.9049572E-09     0.1809914E-08
     0.4500000E+01     0.9801925E+00    -0.1376495E-02     0.7864831E-01     0.1744066E-01     0.4593517E-09     0.9049552E-09     0.1809910E-08
     0.4600000E+01     0.9800533E+00    -0.1407014E-02     0.8039225E-01     0.1743818E-01     0.4593496E-09     0.9049531E-09     0.1809906E-08
     0.4700000E+01     0.9799111E+00    -0.1437528E-02     0.8213594E-01     0.1743565E-01     0.4593475E-09     0.9049510E-09     0.1809902E-08
     0.4800000E+01     0.9797658E+00    -0.1468038E-02     0.8387938E-01     0.1743307E-01     0.4593453E-09     0.9049489E-09     0.1809898E-08
     0.4900000E+01     0.9796175E+00    -0.1498543E-02     0.8562255E-01     0.1743043E-01     0.4593430E-09     0.9049467E-09     0.1809893E-08
     0.5000000E+01     0.9794661E+00    -0.1529043E-02     0.8736546E-01     0.1742774E-01     0.4593408E-09     0.9049445E-09     0.1809889E-08
     0.5100000E+01     0.9793117E+00    -0.1559538E-02     0.8910810E-01     0.1742499E-01     0.4593384E-09     0.9049422E-09     0.1809884E-08
     0.5200000E+01     0.9791542E+00    -0.1590028E-02     0.9085046E-01     0.1742219E-01     0.4593361E-09     0.9049399E-09     0.1809880E-08
     0.5300000E+01     0.9789937E+00    -0.1620512E-02     0.9259253E-01     0.1741933E-01     0.4593336E-09     0.9049375E-09     0.1809875E-08
     0.5400000E+01     0.9788301E+00    -0.1650992E-02     0.9433432E-01     0.1741642E-01     0.4593312E-09     0.9049351E-09     0.1809870E-08
     0.5500000E+01     0.9786635E+00    -0.1681466E-02     0.9607582E-01     0.1741346E-01     0.4593287E-09     0.9049326E-09     0.1809865E-08
     0.5600000E+01     0.9784938E+00    -0.1711934E-02     0.9781701E-01     0.1741044E-01     0.4593261E-09     0.9049301E-09     0.1809860E-08
     0.5700000E+01     0.9783211E+00    -0.1742397E-02     0.9955790E-01     0.1740737E-01     0.4593235E-09     0.9049275E-09     0.1809855E-08
     0.5800000E+01     0.9781453E+00    -0.1772855E-02     0.1012985E+00     0.1740424E-01     0.4593209E-09     0.9049249E-09     0.1809850E-08
     0.5900000E+01     0.9779665E+00    -0.1803306E-02     0.1030387E+00     0.1740106E-01     0.4593182E-09     0.9049223E-09     0.1809845E-08
     0.6000000E+01     0.9777847E+00    -0.1833752E-02     0.1047787E+00     0.1739783E-01     0.4593154E-09     0.9049196E-09     0.1809839E-08
     0.6100000E+01     0.9775998E+00    -0.1864191E-02     0.1065183E+00     0.1739454E-01     0.4593127E-09     0.9049168E-09     0.1809834E-08
     0.6200000E+01     0.9774118E+00    -0.1894625E-02     0.1082576E+00     0.1739120E-01     0.4593098E-09     0.9049141E-09     0.1809828E-08
     0.6300000E+01     0.9772209E+00    -0.1925052E-02     0.1099966E+00     0.1738780E-01     0.4593070E-09     0.9049112E-09     0.1809822E-08
     0.6400000E+01     0.9770268E+00    -0.1955473E-02     0.1117352E+00     0.1738435E-01     0.4593040E-09     0.9049083E-09     0.1809817E-08
     0.6500000E+01     0.9768298E+00    -0.1985888E-02     0.1134734E+00     0.1738084E-01     0.4593011E-09     0.9049054E-09     0.1809811E-08
     0.6600000E+01     0.9766297E+00    -0.2016296E-02     0.1152113E+00     0.1737729E-01     0.4592981E-09     0.9049024E-09     0.1809805E-08
     0.6700000E+01     0.9764265E+00    -0.2046697E-02     0.1169489E+00     0.1737367E-01     0.4592950E-09     0.9048994E-09     0.1809799E-08
     0.6800000E+01     0.9762203E+00    -0.2077092E-02     0.1186861E+00     0.1737000E-01     0.4592919E-09     0.9048964E-09     0.1809793E-08
     0.6900000E+01     0.9760111E+00    -0.2107480E-02     0.1204229E+00     0.1736628E-01     0.4592887E-09     0.9048933E-09     0.1809787E-08
     0.7000000E+01     0.9757988E+00    -0.2137862E-02     0.1221593E+00     0.1736251E-01     0.4592855E-09     0.9048901E-09     0.1809780E-08
     0.7100000E+01     0.9755835E+00    -0.2168236E-02     0.1238954E+00     0.1735868E-01     0.4592823E-09     0.9048869E-09     0.1809774E-08
     0.7200000E+01     0.9753652E+00    -0.2198603E-02     0.1256310E+00     0.1735480E-01     0.4592790E-09     0.9048837E-09     0.1809767E-08
     0.7300000E+01     0.9751438E+00    -0.2228963E-02     0.1273663E+00     0.1735086E-01     0.4592757E-09     0.9048804E-09     0.1809761E-08
     0.7400000E+01     0.9749194E+00    -0.2259316E-02     0.1291012E+00     0.1734687E-01     0.4592723E-09     0.9048770E-09     0.1809754E-08
     0.7500000E+01     0.9746919E+00    -0.2289661E-02     0.1308357E+00     0.1734282E-01     0.4592689E-09     0.9048737E-09     0.1809747E-08
     0.7600000E+01     0.9744615E+00    -0.2319999E-02     0.1325698E+00     0.1733872E-01     0.4592654E-09     0.9048702E-09     0.1809740E-08
     0.7700000E+01     0.9742279E+00    -0.2350329E-02     0.1343034E+00     0.1733457E-01     0.4592619E-09     0.9048668E-09     0.1809734E-08
     0.7800000E+01     0.9739914E+00    -0.2380652E-02     0.1360367E+00     0.1733036E-01     0.4592583E-09     0.9048632E-09     0.1809726E-08
     0.7900000E+01     0.9737518E+00    -0.2410967E-02     0.1377695E+00     0.1732610E-01     0.4592547E-09     0.9048597E-09     0.1809719E-08
     0.8000000E+01     0.9735092E+00    -0.2441274E-02     0.1395019E+00     0.1732179E-01     0.4592511E-09     0.9048561E-09     0.1809712E-08
     0.8100000E+01     0.9732636E+00    -0.2471572E-02     0.1412339E+00     0.1731742E-01     0.4592474E-09     0.9048524E-09     0.1809705E-08
     0.8200000E+01     0.9730149E+00    -0.2501863E-02     0.1429654E+00     0.1731300E-01     0.4592436E-09     0.9048487E-09     0.1809697E-08
     0.8300000E+01     0.9727632E+00    -0.2532146E-02     0.1446965E+00     0.1730852E-01     0.4592399E-09     0.9048450E-09     0.1809690E-08
     0.8400000E+01     0.9725085E+00    -0.2562421E-02     0.1464271E+00     0.1730399E-01     0.4592360E-09     0.9048412E-09     0.1809682E-08
     0.8500000E+01     0.9722507E+00    -0.2592687E-02     0.1481573E+00     0.1729941E-01     0.4592321E-09     0.9048373E-09     0.1809675E-08
     0.8600000E+01     0.9719899E+00    -0.2622944E-02     0.1498870E+00     0.1729477E-01     0.4592282E-09     0.9048334E-09     0.1809667E-08
     0.8700000E+01     0.9717261E+00    -0.2653193E-02     0.1516162E+00     0.1729008E-01     0.4592242E-09     0.9048295E-09     0.1809659E-08
     0.8800000E+01     0.9714593E+00    -0.2683434E-02     0.1533450E+00     0.1728534E-01     0.4592202E-09     0.9048255E-09     0.1809651E-08
     0.8900000E+01     0.9711894E+00    -0.2713666E-02     0.1550733E+00     0.1728054E-01     0.4592162E-09     0.9048215E-09     0.1809643E-08
     0.9000000E+01     0.9709165E+00    -0.2743888E-02     0.1568011E+00     0.1727568E-01     0.4592121E-09     0.9048174E-09     0.1809635E-08
     0.9100000E+01     0.9706406E+00    -0.2774102E-02     0.1585284E+00     0.1727078E-01     0.4592079E-09     0.9048133E-09     0.1809627E-08
     0.9200000E+01     0.9703617E+00    -0.2804307E-02     0.1602553E+00     0.1726582E-01     0.4592037E-09     0.9048092E-09     0.1809618E-08
     0.9300000E+01     0.9700798E+00    -0.2834503E-02     0.1619816E+00     0.1726080E-01     0.4591995E-09     0.9048050E-09     0.1809610E-08
     0.9400000E+01     0.9697948E+00    -0.2864689E-02     0.1637074E+00     0.1725574E-01     0.4591952E-09     0.9048007E-09     0.1809601E-08
     0.9500000E+01     0.9695068E+00    -0.2894866E-02     0.1654327E+00     0.1725062E-01     0.4591908E-09     0.9047964E-09     0.1809593E-08
     0.9600000E+01     0.9692159E+00    -0.2925034E-02     0.1671575E+00     0.1724544E-01     0.4591865E-09     0.9047921E-09     0.1809584E-08
     0.9700000E+01     0.9689218E+00    -0.2955192E-02     0.1688818E+00     0.1724022E-01     0.4591820E-09     0.9047877E-09     0.1809575E-08
     0.9800000E+01     0.9686248E+00    -0.2985340E-02     0.1706056E+00     0.1723493E-01     0.4591776E-09     0.9047833E-09     0.1809567E-08
     0.9900000E+01     0.9683248E+00    -0.3015479E-02     0.1723288E+00     0.1722960E-01     0.4591730E-09     0.9047788E-09     0.1809558E-08
     0.1000000E+02     0.9680217E+00    -0.3045608E-02     0.1740515E+00     0.1722421E-01     0.4591685E-09     0.9047743E-09     0.1809549E-08
     0.1010000E+02     0.9677157E+00    -0.3075726E-02     0.1757736E+00     0.1721877E-01     0.4591639E-09     0.9047697E-09     0.1809539E-08
     0.1020000E+02     0.9674066E+00    -0.3105835E-02     0.1774952E+00     0.1721327E-01     0.4591592E-09     0.9047651E-09     0.1809530E-08
     0.1030000E+02     0.9670945E+00    -0.3135934E-02     0.1792163E+00     0.1720772E-01     0.4591545E-09     0.9047604E-09     0.1809521E-08
     0.1040000E+02     0.9667794E+00    -0.3166022E-02     0.1809368E+00     0.1720212E-01     0.4591498E-09     0.9047557E-09     0.1809511E-08
     0.1050000E+02     0.9664613E+00    -0.3196101E-02     0.1826567E+00     0.1719647E-01     0.4591450E-09     0.9047510E-09     0.1809502E-08
     0.1060000E+02     0.9661402E+00    -0.3226168E-02     0.1843761E+00     0.1719076E-01     0.4591402E-09     0.9047462E-09     0.1809492E-08
     0.1070000E+02     0.9658160E+00    -0.3256225E-02     0.1860949E+00     0.1718499E-01     0.4591353E-09     0.9047414E-09     0.1809483E-08
     0.1080000E+02     0.9654889E+00    -0.3286272E-02     0.1878131E+00     0.1717918E-01     0.4591304E-09     0.9047365E-09     0.1809473E-08
     0.1090000E+02     0.9651588E+00    -0.3316308E-02     0.1895307E+00     0.1717331E-01     0.4591254E-09     0.9047315E-09     0.1809463E-08
     0.1100000E+02     0.9648257E+00    -0.3346333E-02     0.1912477E+00     0.1716739E-01     0.4591204E-09     0.9047266E-09     0.1809453E-08
     0.1110000E+02     0.9644895E+00    -0.3376347E-02     0.1929642E+00     0.1716141E-01     0.4591153E-09     0.9047215E-09     0.1809443E-08
     0.1120000E+02     0.9641504E+00    -0.3406350E-02     0.1946800E+00     0.1715538E-01     0.4591102E-09     0.9047165E-09     0.1809433E-08
     0.1130000E+02     0.9638083E+00    -0.3436342E-02     0.1963952E+00     0.1714930E-01     0.4591051E-09     0.9047114E-09     0.1809423E-08
     0.1140000E+02     0.9634631E+00    -0.3466323E-02     0.1981099E+00     0.1714316E-01     0.4590999E-09     0.9047062E-09     0.1809412E-08
     0.1150000E+02     0.9631150E+00    -0.3496292E-02     0.1998239E+00     0.1713697E-01     0.4590946E-09     0.9047010E-09     0.1809402E-08
     0.1160000E+02     0.9627639E+00    -0.3526250E-02     0.2015373E+00     0.1713073E-01     0.4590894E-09     0.9046958E-09     0.1809392E-08
     0.1170000E+02     0.9624097E+00    -0.3556197E-02     0.2032500E+00     0.1712444E-01     0.4590840E-09     0.9046905E-09     0.1809381E-08
     0.1180000E+02     0.9620526E+00    -0.3586132E-02     0.2049622E+00     0.1711809E-01     0.4590786E-09     0.9046851E-09     0.1809370E-08
     0.1190000E+02     0.9616925E+00    -0.3616055E-02     0.2066736E+00     0.1711169E-01     0.4590732E-09     0.9046798E-09     0.1809360E-08
     0.1200000E+02     0.9613294E+00    -0.3645967E-02     0.2083845E+00     0.1710523E-01     0.4590678E-09     0.9046743E-09     0.1809349E-08
     0.1210000E+02     0.9609633E+00    -0.3675866E-02     0.2100947E+00     0.1709872E-01     0.4590623E-09     0.9046689E-09     0.1809338E-08
     0.1220000E+02     0.9605942E+00    -0.3705754E-02     0.2118042E+00     0.1709216E-01     0.4590567E-09     0.9046634E-09     0.1809327E-08
     0.1230000E+02     0.9602222E+00    -0.3735629E-02     0.2135131E+00     0.1708555E-01     0.4590511E-09     0.9046578E-09     0.1809316E-08
     0.1240000E+02     0.9598471E+00    -0.3765493E-02     0.2152213E+00     0.1707888E-01     0.4590455E-09     0.9046522E-09     0.1809304E-08
     0.1250000E+02     0.9594691E+00    -0.3795344E-02     0.2169289E+00     0.1707216E-01     0.4590398E-09     0.9046465E-09     0.1809293E-08
     0.1260000E+02     0.9590880E+00    -0.3825182E-02     0.2186358E+00     0.1706539E-01     0.4590340E-09     0.9046408E-09     0.1809282E-08
     0.1270000E+02     0.9587040E+00    -0.3855009E-02     0.2203420E+00     0.1705856E-01     0.4590283E-09     0.9046351E-09     0.1809270E-08
     0.1280000E+02     0.9583170E+00    -0.3884822E-02     0.2220475E+00     0.1705169E-01     0.4590224E-09     0.9046293E-09     0.1809259E-08
     0.1290000E+02     0.9579271E+00    -0.3914623E-02     0.2237523E+00     0.1704475E-01     0.4590166E-09     0.9046235E-09     0.1809247E-08
     0.1300000E+02     0.9575341E+00    -0.3944411E-02     0.2254564E+00     0.1703777E-01     0.4590107E-09     0.9046176E-09     0.1809235E-08
     0.1310000E+02     0.9571382E+00    -0.3974187E-02     0.2271599E+00     0.1703073E-01     0.4590047E-09     0.9046117E-09     0.1809223E-08
     0.1320000E+02     0.9567393E+00    -0.4003949E-02     0.2288626E+00     0.1702364E-01     0.4589987E-09     0.9046057E-09     0.1809211E-08
     0.1330000E+02     0.9563374E+00    -0.4033698E-02     0.2305646E+00     0.1701650E-01     0.4589927E-09     0.9045997E-09     0.1809199E-08
     0.1340000E+02     0.9559325E+00    -0.4063435E-02     0.2322659E+00     0.1700930E-01     0.4589866E-09     0.9045937E-09     0.1809187E-08
     0.1350000E+02     0.9555247E+00    -0.4093158E-02     0.2339664E+00     0.1700206E-01     0.4589804E-09     0.9045876E-09     0.1809175E-08
     0.1360000E+02     0.9551139E+00    -0.4122867E-02     0.2356663E+00     0.1699475E-01     0.4589742E-09     0.9045814E-09     0.1809163E-08
